SpectraSuite Data File
++++++++++++++++++++++++++++++++++++
Date: Tue Oct 02 18:22:52 CEST 2018
User: Admin
Dark Spectrum Present: Yes
Reference Spectrum Present: No
Number of Sampled Component Spectra: 1
Spectrometers: HR+C0365
Integration Time (usec): 150000 (HR+C0365)
Spectra Averaged: 5 (HR+C0365)
Boxcar Smoothing: 0 (HR+C0365)
Correct for Electrical Dark: Yes (HR+C0365)
Strobe/Lamp Enabled: No (HR+C0365)
Correct for Detector Non-linearity: No (HR+C0365)
Correct for Stray Light: No (HR+C0365)
Number of Pixels in Processed Spectrum: 2048
>>>>>Begin Processed Spectral Data<<<<<
188,54	7,93
189,01	7,93
189,48	-4,27
189,96	7,93
190,43	13,93
190,90	3,53
191,37	6,13
191,84	3,93
192,31	4,93
192,78	10,33
193,26	-10,47
193,73	5,13
194,20	-13,27
194,67	-9,27
195,14	5,13
195,61	12,33
196,08	-4,07
196,56	-17,87
197,03	-3,47
197,50	9,73
197,97	-3,27
198,44	2,13
198,91	-16,87
199,38	-1,27
199,85	18,33
200,32	8,93
200,80	-6,27
201,27	-1,27
201,74	0,13
202,21	9,13
202,68	8,53
203,15	-4,47
203,62	4,53
204,09	-2,87
204,56	7,53
205,03	-7,07
205,50	1,13
205,98	7,93
206,45	-4,27
206,92	4,13
207,39	8,73
207,86	2,73
208,33	1,93
208,80	4,93
209,27	16,53
209,74	6,33
210,21	3,53
210,68	-0,67
211,15	-7,07
211,62	7,13
212,09	5,53
212,56	-11,67
213,03	21,13
213,51	-3,47
213,98	11,13
214,45	13,73
214,92	23,13
215,39	13,53
215,86	18,33
216,33	1,13
216,80	13,73
217,27	7,33
217,74	14,53
218,21	-5,67
218,68	-3,07
219,15	-1,07
219,62	5,33
220,09	10,53
220,56	0,33
221,03	-8,47
221,50	3,13
221,97	4,93
222,44	19,93
222,91	-6,67
223,38	-7,07
223,85	9,73
224,32	-7,47
224,79	9,53
225,26	11,13
225,73	-6,27
226,20	-0,87
226,67	-3,67
227,14	9,33
227,61	6,93
228,08	1,73
228,55	14,33
229,02	5,73
229,49	-8,67
229,96	0,53
230,43	10,73
230,89	13,13
231,36	2,33
231,83	2,93
232,30	1,13
232,77	13,73
233,24	7,13
233,71	-0,07
234,18	16,13
234,65	2,53
235,12	-3,27
235,59	7,73
236,06	4,93
236,53	1,73
237,00	-6,07
237,47	7,93
237,94	1,73
238,40	2,13
238,87	-10,47
239,34	30,73
239,81	11,33
240,28	17,33
240,75	10,13
241,22	-8,87
241,69	-11,27
242,16	-2,47
242,63	-6,47
243,10	10,93
243,56	-4,27
244,03	12,33
244,50	20,53
244,97	5,13
245,44	6,73
245,91	-14,87
246,38	17,73
246,85	11,53
247,31	-16,47
247,78	6,73
248,25	1,53
248,72	5,93
249,19	23,13
249,66	5,33
250,13	6,53
250,60	-0,67
251,06	-1,07
251,53	-5,47
252,00	4,93
252,47	8,73
252,94	6,33
253,41	-4,87
253,87	-1,67
254,34	13,53
254,81	5,53
255,28	-5,87
255,75	11,33
256,22	-0,47
256,69	7,13
257,15	19,53
257,62	-4,27
258,09	-1,67
258,56	6,93
259,03	5,53
259,49	-5,27
259,96	11,33
260,43	-5,47
260,90	5,33
261,37	-9,27
261,83	-2,87
262,30	6,13
262,77	-5,07
263,24	10,13
263,71	12,93
264,17	6,73
264,64	-6,87
265,11	-7,87
265,58	2,53
266,05	-2,07
266,51	-1,47
266,98	8,93
267,45	-9,07
267,92	9,33
268,38	-6,27
268,85	-12,27
269,32	10,13
269,79	-1,67
270,25	0,13
270,72	2,33
271,19	-6,07
271,66	3,53
272,12	17,93
272,59	5,13
273,06	2,33
273,53	9,53
273,99	4,93
274,46	8,13
274,93	1,93
275,40	6,73
275,86	4,93
276,33	-3,47
276,80	-3,27
277,27	-11,47
277,73	-19,47
278,20	1,73
278,67	4,13
279,13	12,73
279,60	3,93
280,07	-4,47
280,54	-18,67
281,00	-3,27
281,47	7,13
281,94	3,33
282,40	7,93
282,87	6,53
283,34	4,33
283,80	8,13
284,27	26,13
284,74	9,33
285,21	-25,47
285,67	6,93
286,14	-8,47
286,61	-2,87
287,07	12,73
287,54	-0,07
288,01	8,53
288,47	6,53
288,94	1,33
289,41	-3,87
289,87	0,53
290,34	-4,07
290,81	3,13
291,27	2,73
291,74	1,13
292,20	-5,27
292,67	-9,67
293,14	12,53
293,60	6,53
294,07	10,33
294,54	7,93
295,00	10,53
295,47	12,33
295,94	11,33
296,40	-3,67
296,87	-0,27
297,33	3,13
297,80	10,73
298,27	15,13
298,73	-2,47
299,20	5,53
299,67	7,33
300,13	-15,27
300,60	9,73
301,06	15,93
301,53	10,53
302,00	7,93
302,46	-11,27
302,93	-1,07
303,39	-23,67
303,86	3,13
304,32	-2,47
304,79	8,33
305,26	8,53
305,72	-2,27
306,19	-0,07
306,65	9,93
307,12	-19,87
307,59	0,93
308,05	-12,27
308,52	-4,47
308,98	3,33
309,45	-7,67
309,91	2,93
310,38	9,13
310,84	-2,47
311,31	15,13
311,78	4,93
312,24	0,33
312,71	4,73
313,17	9,73
313,64	-4,07
314,10	-0,87
314,57	-0,67
315,03	-12,67
315,50	10,93
315,96	-4,67
316,43	-4,47
316,89	12,53
317,36	0,33
317,82	5,33
318,29	8,13
318,75	-3,47
319,22	9,73
319,68	-9,27
320,15	15,53
320,61	15,73
321,08	1,73
321,54	3,33
322,01	-2,07
322,47	-4,47
322,94	5,73
323,40	12,53
323,87	3,93
324,33	2,73
324,80	-6,67
325,26	9,93
325,73	-1,87
326,19	17,93
326,66	-0,07
327,12	-4,27
327,59	-2,47
328,05	5,53
328,52	3,33
328,98	8,93
329,45	1,93
329,91	4,33
330,37	9,33
330,84	1,93
331,30	10,13
331,77	4,53
332,23	-3,07
332,70	-3,87
333,16	6,13
333,62	0,13
334,09	-19,27
334,55	8,33
335,02	-4,87
335,48	2,93
335,95	11,33
336,41	13,93
336,87	-7,87
337,34	11,13
337,80	-10,47
338,27	17,53
338,73	-4,07
339,20	10,73
339,66	-17,27
340,12	-5,67
340,59	14,33
341,05	-6,07
341,51	-1,47
341,98	6,13
342,44	22,93
342,91	14,73
343,37	14,33
343,83	6,33
344,30	17,53
344,76	-9,07
345,23	1,93
345,69	4,93
346,15	-7,07
346,62	10,33
347,08	10,53
347,54	-7,67
348,01	-1,67
348,47	8,53
348,93	7,33
349,40	13,93
349,86	-11,67
350,32	1,73
350,79	4,73
351,25	4,53
351,71	-1,67
352,18	-9,67
352,64	3,13
353,10	10,73
353,57	11,93
354,03	4,33
354,49	-21,07
354,96	-0,27
355,42	2,13
355,88	-3,27
356,35	5,33
356,81	-2,87
357,27	-10,47
357,74	6,93
358,20	9,93
358,66	1,73
359,13	-8,07
359,59	4,53
360,05	-0,67
360,51	2,13
360,98	-3,87
361,44	-6,07
361,90	28,93
362,37	4,73
362,83	-18,87
363,29	-5,27
363,75	4,13
364,22	8,53
364,68	11,93
365,14	5,93
365,60	7,13
366,07	6,73
366,53	12,13
366,99	14,33
367,46	-1,27
367,92	23,73
368,38	-11,47
368,84	13,13
369,31	1,93
369,77	6,13
370,23	9,73
370,69	-2,87
371,15	-14,07
371,62	-6,07
372,08	19,33
372,54	6,13
373,00	11,93
373,47	4,33
373,93	9,53
374,39	3,93
374,85	20,53
375,31	2,33
375,78	-24,47
376,24	1,13
376,70	0,13
377,16	2,93
377,63	9,73
378,09	2,73
378,55	8,73
379,01	-1,07
379,47	4,93
379,93	-12,07
380,40	-2,07
380,86	-15,87
381,32	-4,67
381,78	7,33
382,24	11,33
382,71	9,33
383,17	19,93
383,63	12,53
384,09	-13,07
384,55	-2,67
385,01	0,93
385,48	-7,47
385,94	3,73
386,40	7,13
386,86	17,53
387,32	19,33
387,78	13,13
388,24	0,53
388,71	-1,67
389,17	17,73
389,63	1,33
390,09	-8,47
390,55	18,13
391,01	-7,47
391,47	10,53
391,94	-0,27
392,40	11,73
392,86	6,33
393,32	5,53
393,78	18,53
394,24	-9,07
394,70	2,13
395,16	4,13
395,62	5,73
396,09	14,33
396,55	9,73
397,01	0,93
397,47	9,73
397,93	12,33
398,39	-6,67
398,85	-2,87
399,31	-1,67
399,77	7,33
400,23	-3,67
400,69	12,73
401,15	10,33
401,62	6,33
402,08	25,33
402,54	4,13
403,00	1,73
403,46	-2,07
403,92	-2,07
404,38	15,53
404,84	17,73
405,30	2,13
405,76	10,53
406,22	-5,87
406,68	4,93
407,14	-9,47
407,60	-9,07
408,06	3,93
408,52	4,93
408,98	8,13
409,44	3,73
409,90	6,53
410,36	-4,27
410,82	9,33
411,28	23,13
411,74	1,13
412,20	-0,47
412,67	5,33
413,13	-4,07
413,59	-9,67
414,05	7,73
414,51	0,13
414,97	6,53
415,43	0,53
415,89	-10,27
416,35	-6,47
416,80	13,93
417,26	7,53
417,72	8,13
418,18	3,73
418,64	23,33
419,10	15,93
419,56	1,93
420,02	-4,07
420,48	-1,67
420,94	27,33
421,40	0,53
421,86	-3,67
422,32	-9,27
422,78	-3,27
423,24	-4,07
423,70	8,93
424,16	8,73
424,62	-7,07
425,08	-2,27
425,54	10,13
426,00	8,93
426,46	-4,47
426,92	10,73
427,38	0,53
427,83	-1,47
428,29	-9,47
428,75	3,53
429,21	14,13
429,67	15,73
430,13	8,53
430,59	5,53
431,05	-1,47
431,51	10,73
431,97	9,33
432,43	7,33
432,89	4,93
433,34	4,53
433,80	10,13
434,26	0,53
434,72	10,33
435,18	-1,07
435,64	5,33
436,10	22,73
436,56	2,13
437,02	-0,27
437,47	7,73
437,93	10,33
438,39	-7,27
438,85	-8,07
439,31	-9,07
439,77	9,93
440,23	10,53
440,68	11,53
441,14	6,13
441,60	-14,27
442,06	-1,67
442,52	0,13
442,98	8,93
443,44	13,13
443,89	17,33
444,35	19,73
444,81	9,13
445,27	-4,27
445,73	5,73
446,19	2,33
446,64	-3,87
447,10	2,93
447,56	6,73
448,02	4,13
448,48	5,73
448,93	8,93
449,39	4,33
449,85	5,93
450,31	7,33
450,77	-3,67
451,23	22,33
451,68	18,53
452,14	1,73
452,60	12,53
453,06	-2,07
453,51	-6,27
453,97	0,33
454,43	5,93
454,89	13,93
455,35	3,33
455,80	9,73
456,26	-3,27
456,72	17,53
457,18	12,33
457,63	9,33
458,09	7,33
458,55	7,13
459,01	6,73
459,46	-3,47
459,92	8,93
460,38	14,13
460,84	12,93
461,29	1,33
461,75	2,33
462,21	9,33
462,67	3,13
463,12	3,13
463,58	5,73
464,04	-4,67
464,50	-7,47
464,95	-5,67
465,41	10,33
465,87	-12,67
466,33	8,13
466,78	23,13
467,24	6,13
467,70	-3,07
468,15	-1,27
468,61	-6,07
469,07	0,53
469,52	-0,87
469,98	-2,07
470,44	-5,87
470,90	-3,27
471,35	5,53
471,81	-6,67
472,27	-7,47
472,72	-9,47
473,18	7,53
473,64	5,73
474,09	-17,27
474,55	-13,87
475,01	8,13
475,46	9,33
475,92	9,73
476,38	1,93
476,83	1,13
477,29	30,93
477,75	11,33
478,20	2,53
478,66	4,53
479,12	4,33
479,57	21,13
480,03	-3,47
480,48	-4,27
480,94	7,33
481,40	-0,47
481,85	15,73
482,31	12,53
482,77	7,13
483,22	-9,07
483,68	0,93
484,13	22,93
484,59	12,73
485,05	1,73
485,50	12,33
485,96	12,53
486,41	21,93
486,87	-5,67
487,33	-2,27
487,78	13,73
488,24	11,53
488,69	8,33
489,15	10,33
489,61	15,53
490,06	9,93
490,52	8,93
490,97	-3,87
491,43	9,93
491,89	11,33
492,34	25,93
492,80	-0,67
493,25	25,73
493,71	25,13
494,16	4,13
494,62	10,53
495,07	0,13
495,53	11,53
495,99	6,93
496,44	10,13
496,90	15,33
497,35	3,33
497,81	11,13
498,26	15,33
498,72	9,73
499,17	21,53
499,63	15,53
500,08	18,13
500,54	11,53
500,99	18,13
501,45	19,53
501,90	22,73
502,36	7,53
502,82	13,73
503,27	21,13
503,73	8,53
504,18	19,93
504,64	16,53
505,09	21,33
505,55	9,33
506,00	16,93
506,46	33,73
506,91	19,13
507,36	21,73
507,82	15,93
508,27	24,53
508,73	26,53
509,18	23,33
509,64	42,13
510,09	29,53
510,55	21,73
511,00	20,53
511,46	10,13
511,91	22,93
512,37	23,33
512,82	33,53
513,28	32,73
513,73	23,13
514,18	18,33
514,64	32,93
515,09	15,13
515,55	33,33
516,00	20,53
516,46	31,73
516,91	22,93
517,37	21,93
517,82	32,73
518,27	19,73
518,73	22,73
519,18	39,53
519,64	36,93
520,09	23,33
520,54	22,73
521,00	16,33
521,45	36,53
521,91	36,93
522,36	27,73
522,81	22,13
523,27	30,13
523,72	47,53
524,18	39,73
524,63	29,73
525,08	29,93
525,54	22,33
525,99	42,73
526,45	26,13
526,90	27,33
527,35	48,93
527,81	31,33
528,26	32,33
528,71	42,93
529,17	31,93
529,62	52,13
530,07	33,13
530,53	49,53
530,98	43,33
531,43	46,53
531,89	58,13
532,34	39,13
532,80	38,33
533,25	53,13
533,70	44,13
534,16	36,13
534,61	35,53
535,06	51,13
535,51	51,53
535,97	50,93
536,42	54,73
536,87	17,53
537,33	35,73
537,78	65,53
538,23	58,73
538,69	56,53
539,14	56,73
539,59	66,73
540,05	58,73
540,50	59,13
540,95	59,13
541,40	57,53
541,86	45,53
542,31	70,93
542,76	65,33
543,22	64,53
543,67	57,93
544,12	63,33
544,57	55,93
545,03	52,93
545,48	63,53
545,93	65,73
546,38	59,13
546,84	64,93
547,29	60,73
547,74	67,93
548,19	74,73
548,65	56,73
549,10	62,73
549,55	65,13
550,00	40,73
550,46	74,13
550,91	63,73
551,36	77,13
551,81	61,73
552,27	77,13
552,72	76,53
553,17	78,13
553,62	71,93
554,08	72,33
554,53	85,33
554,98	65,33
555,43	74,33
555,88	72,33
556,34	83,33
556,79	78,33
557,24	82,13
557,69	65,33
558,14	87,13
558,60	87,53
559,05	76,93
559,50	71,53
559,95	92,13
560,40	84,53
560,85	99,33
561,31	96,33
561,76	93,53
562,21	97,33
562,66	99,33
563,11	99,53
563,56	106,13
564,02	104,73
564,47	110,93
564,92	100,53
565,37	110,13
565,82	100,73
566,27	108,73
566,72	108,53
567,18	105,13
567,63	124,13
568,08	103,93
568,53	99,93
568,98	107,13
569,43	101,53
569,88	135,73
570,34	93,13
570,79	112,53
571,24	115,53
571,69	119,73
572,14	137,33
572,59	121,33
573,04	119,53
573,49	123,73
573,94	118,53
574,40	118,53
574,85	103,53
575,30	143,13
575,75	144,53
576,20	124,73
576,65	133,13
577,10	129,93
577,55	116,53
578,00	121,13
578,45	130,33
578,90	132,33
579,35	151,53
579,80	154,93
580,26	158,13
580,71	157,13
581,16	151,53
581,61	149,33
582,06	140,53
582,51	150,53
582,96	149,33
583,41	146,73
583,86	161,33
584,31	158,33
584,76	160,73
585,21	153,53
585,66	146,93
586,11	161,93
586,56	155,33
587,01	168,13
587,46	156,13
587,91	170,13
588,36	169,53
588,81	165,53
589,26	164,53
589,71	162,53
590,16	162,53
590,61	153,13
591,06	155,73
591,51	178,93
591,96	182,73
592,41	180,13
592,86	178,53
593,31	171,73
593,76	193,73
594,21	174,93
594,66	180,33
595,11	205,13
595,56	187,73
596,01	201,13
596,46	200,73
596,91	208,53
597,36	186,33
597,81	209,33
598,26	191,73
598,71	211,33
599,16	197,33
599,61	200,13
600,06	221,93
600,51	229,93
600,96	211,93
601,40	237,53
601,85	231,53
602,30	223,33
602,75	230,73
603,20	233,13
603,65	236,53
604,10	236,13
604,55	247,33
605,00	231,73
605,45	245,93
605,90	255,33
606,35	260,93
606,80	259,53
607,24	258,53
607,69	261,53
608,14	256,93
608,59	259,13
609,04	265,93
609,49	278,33
609,94	289,73
610,39	290,73
610,84	303,93
611,28	308,13
611,73	287,13
612,18	291,93
612,63	275,73
613,08	280,73
613,53	310,73
613,98	313,93
614,43	328,33
614,87	333,73
615,32	335,93
615,77	311,33
616,22	332,53
616,67	325,73
617,12	318,13
617,56	360,73
618,01	342,33
618,46	340,73
618,91	337,73
619,36	351,53
619,81	348,93
620,25	363,93
620,70	369,13
621,15	379,73
621,60	378,33
622,05	343,93
622,50	375,33
622,94	368,73
623,39	368,73
623,84	366,93
624,29	392,93
624,74	392,13
625,18	413,93
625,63	392,73
626,08	407,33
626,53	401,33
626,97	417,13
627,42	408,13
627,87	383,33
628,32	406,53
628,77	411,13
629,21	417,93
629,66	414,33
630,11	422,33
630,56	436,93
631,00	428,33
631,45	410,13
631,90	447,53
632,35	434,73
632,79	462,53
633,24	449,73
633,69	455,73
634,14	443,33
634,58	442,73
635,03	434,13
635,48	442,13
635,93	465,13
636,37	454,33
636,82	461,33
637,27	464,93
637,71	483,73
638,16	489,33
638,61	484,93
639,06	492,93
639,50	517,13
639,95	485,93
640,40	467,93
640,84	485,33
641,29	498,53
641,74	493,33
642,19	484,73
642,63	489,33
643,08	494,13
643,53	505,73
643,97	497,53
644,42	501,93
644,87	507,73
645,31	511,13
645,76	528,33
646,21	544,33
646,65	536,33
647,10	527,13
647,55	518,13
647,99	531,93
648,44	554,13
648,89	550,13
649,33	528,33
649,78	559,53
650,23	542,73
650,67	573,53
651,12	566,53
651,56	589,93
652,01	573,73
652,46	600,73
652,90	600,73
653,35	613,33
653,80	592,13
654,24	599,33
654,69	611,73
655,13	590,53
655,58	612,73
656,03	594,13
656,47	618,33
656,92	630,33
657,36	646,53
657,81	635,53
658,26	659,33
658,70	632,93
659,15	645,13
659,59	659,33
660,04	657,33
660,49	658,93
660,93	675,93
661,38	684,93
661,82	707,93
662,27	680,53
662,71	695,33
663,16	711,73
663,61	712,93
664,05	710,93
664,50	726,73
664,94	712,93
665,39	706,13
665,83	715,53
666,28	753,53
666,72	731,53
667,17	750,73
667,61	780,93
668,06	783,73
668,51	763,53
668,95	774,73
669,40	795,33
669,84	780,93
670,29	790,33
670,73	791,73
671,18	811,93
671,62	810,13
672,07	801,33
672,51	831,73
672,96	821,33
673,40	827,53
673,85	838,33
674,29	830,93
674,74	845,93
675,18	833,73
675,63	824,13
676,07	869,33
676,52	868,13
676,96	867,33
677,41	884,33
677,85	918,53
678,30	888,53
678,74	873,13
679,18	889,13
679,63	935,53
680,07	903,53
680,52	912,13
680,96	920,53
681,41	925,73
681,85	941,13
682,30	935,73
682,74	918,73
683,19	931,93
683,63	943,33
684,07	951,33
684,52	946,53
684,96	979,13
685,41	964,93
685,85	957,53
686,30	965,13
686,74	960,33
687,18	995,93
687,63	995,53
688,07	988,13
688,52	987,33
688,96	983,13
689,40	995,53
689,85	1004,33
690,29	993,73
690,74	1010,33
691,18	998,73
691,62	1026,73
692,07	1004,13
692,51	993,73
692,96	1018,13
693,40	1010,93
693,84	1039,13
694,29	1018,93
694,73	1035,33
695,17	1034,13
695,62	1044,13
696,06	1032,33
696,50	1031,53
696,95	1032,13
697,39	1068,33
697,84	1074,53
698,28	1052,13
698,72	1059,33
699,17	1052,33
699,61	1056,13
700,05	1073,53
700,50	1054,33
700,94	1096,93
701,38	1091,93
701,83	1082,53
702,27	1078,73
702,71	1103,53
703,15	1080,33
703,60	1088,93
704,04	1046,33
704,48	1099,13
704,93	1087,73
705,37	1098,53
705,81	1106,13
706,26	1102,13
706,70	1098,33
707,14	1108,73
707,58	1111,53
708,03	1116,93
708,47	1116,13
708,91	1127,33
709,36	1111,73
709,80	1119,13
710,24	1140,93
710,68	1144,73
711,13	1127,93
711,57	1164,53
712,01	1147,73
712,45	1116,93
712,90	1164,73
713,34	1171,33
713,78	1147,33
714,22	1170,53
714,67	1148,93
715,11	1157,73
715,55	1173,73
715,99	1158,33
716,44	1170,13
716,88	1219,93
717,32	1153,93
717,76	1168,93
718,21	1173,53
718,65	1186,53
719,09	1184,13
719,53	1194,53
719,97	1220,53
720,42	1180,13
720,86	1224,93
721,30	1211,13
721,74	1216,53
722,18	1218,93
722,63	1230,73
723,07	1185,73
723,51	1181,53
723,95	1193,93
724,39	1207,53
724,84	1214,93
725,28	1221,53
725,72	1216,93
726,16	1231,53
726,60	1264,73
727,04	1257,93
727,49	1258,73
727,93	1237,33
728,37	1279,53
728,81	1306,13
729,25	1292,53
729,69	1286,33
730,14	1295,13
730,58	1316,73
731,02	1298,13
731,46	1346,33
731,90	1315,13
732,34	1322,93
732,78	1343,73
733,22	1336,13
733,67	1330,93
734,11	1353,13
734,55	1338,33
734,99	1354,33
735,43	1347,13
735,87	1382,13
736,31	1368,53
736,75	1383,93
737,19	1375,13
737,64	1406,93
738,08	1404,93
738,52	1386,73
738,96	1411,33
739,40	1394,73
739,84	1431,93
740,28	1448,13
740,72	1447,73
741,16	1423,33
741,60	1444,33
742,04	1465,73
742,48	1474,13
742,93	1462,13
743,37	1503,33
743,81	1471,13
744,25	1494,53
744,69	1486,13
745,13	1512,93
745,57	1516,73
746,01	1514,13
746,45	1497,13
746,89	1528,93
747,33	1526,53
747,77	1539,73
748,21	1548,73
748,65	1512,53
749,09	1547,13
749,53	1552,33
749,97	1546,73
750,41	1550,53
750,85	1582,53
751,29	1557,93
751,73	1562,53
752,17	1571,93
752,61	1583,93
753,05	1567,53
753,49	1600,13
753,93	1562,93
754,37	1555,33
754,81	1588,13
755,25	1567,73
755,69	1591,13
756,13	1585,73
756,57	1584,33
757,01	1604,73
757,45	1573,53
757,89	1585,33
758,33	1603,33
758,77	1599,33
759,21	1574,73
759,65	1596,33
760,09	1615,73
760,53	1601,73
760,97	1618,93
761,41	1599,33
761,85	1576,93
762,29	1570,93
762,73	1624,93
763,16	1606,93
763,60	1590,53
764,04	1597,13
764,48	1602,33
764,92	1562,93
765,36	1572,33
765,80	1566,33
766,24	1601,53
766,68	1560,93
767,12	1597,13
767,56	1550,73
768,00	1570,13
768,43	1581,13
768,87	1568,93
769,31	1537,53
769,75	1559,73
770,19	1559,93
770,63	1561,53
771,07	1566,13
771,51	1526,93
771,95	1530,13
772,38	1525,13
772,82	1551,93
773,26	1537,13
773,70	1525,33
774,14	1540,53
774,58	1537,93
775,02	1513,73
775,45	1532,73
775,89	1540,53
776,33	1504,93
776,77	1503,13
777,21	1528,53
777,65	1516,53
778,09	1505,73
778,52	1520,93
778,96	1465,33
779,40	1484,73
779,84	1494,53
780,28	1522,33
780,72	1470,13
781,15	1475,73
781,59	1443,13
782,03	1460,93
782,47	1451,33
782,91	1453,13
783,34	1430,73
783,78	1436,93
784,22	1422,33
784,66	1429,53
785,10	1407,13
785,53	1452,93
785,97	1458,53
786,41	1434,13
786,85	1396,53
787,28	1409,33
787,72	1433,73
788,16	1419,93
788,60	1376,93
789,04	1394,93
789,47	1435,13
789,91	1426,93
790,35	1363,33
790,79	1401,93
791,22	1384,93
791,66	1365,73
792,10	1396,13
792,54	1402,13
792,97	1384,53
793,41	1381,53
793,85	1370,13
794,29	1379,93
794,72	1373,73
795,16	1353,33
795,60	1375,33
796,03	1343,73
796,47	1371,93
796,91	1358,33
797,35	1368,53
797,78	1348,53
798,22	1310,53
798,66	1355,33
799,09	1355,93
799,53	1352,13
799,97	1313,13
800,41	1313,53
800,84	1319,73
801,28	1319,73
801,72	1321,13
802,15	1313,73
802,59	1275,93
803,03	1323,73
803,46	1332,93
803,90	1286,93
804,34	1306,13
804,77	1303,53
805,21	1307,53
805,65	1319,73
806,08	1265,53
806,52	1286,13
806,96	1304,53
807,39	1312,33
807,83	1306,93
808,26	1264,33
808,70	1292,13
809,14	1280,53
809,57	1298,73
810,01	1296,93
810,45	1265,73
810,88	1258,53
811,32	1327,93
811,76	1255,93
812,19	1285,73
812,63	1283,73
813,06	1283,73
813,50	1285,33
813,94	1277,13
814,37	1292,93
814,81	1281,13
815,24	1239,73
815,68	1275,53
816,12	1263,33
816,55	1267,33
816,99	1222,73
817,42	1227,93
817,86	1260,33
818,29	1233,13
818,73	1220,73
819,17	1263,33
819,60	1245,73
820,04	1231,53
820,47	1252,33
820,91	1272,13
821,34	1226,53
821,78	1232,33
822,21	1237,33
822,65	1216,33
823,09	1233,93
823,52	1234,73
823,96	1234,73
824,39	1258,93
824,83	1236,73
825,26	1214,73
825,70	1219,93
826,13	1214,93
826,57	1212,53
827,00	1248,33
827,44	1225,13
827,87	1211,53
828,31	1215,53
828,74	1232,93
829,18	1212,93
829,61	1215,13
830,05	1210,53
830,48	1192,13
830,92	1223,53
831,35	1206,33
831,79	1213,93
832,22	1211,13
832,66	1216,53
833,09	1208,93
833,53	1198,13
833,96	1191,93
834,40	1192,53
834,83	1210,73
835,27	1236,13
835,70	1209,93
836,13	1184,93
836,57	1193,33
837,00	1215,33
837,44	1219,33
837,87	1161,73
838,31	1164,13
838,74	1177,53
839,18	1219,73
839,61	1163,73
840,04	1197,53
840,48	1170,33
840,91	1184,33
841,35	1176,93
841,78	1179,13
842,22	1193,13
842,65	1157,13
843,08	1166,53
843,52	1203,73
843,95	1130,53
844,39	1137,33
844,82	1157,13
845,25	1171,53
845,69	1148,13
846,12	1118,73
846,56	1158,93
846,99	1140,93
847,42	1152,13
847,86	1136,53
848,29	1135,73
848,72	1159,53
849,16	1146,93
849,59	1121,73
850,03	1139,73
850,46	1131,53
850,89	1126,53
851,33	1129,53
851,76	1123,93
852,19	1115,73
852,63	1138,73
853,06	1120,33
853,49	1101,13
853,93	1121,33
854,36	1099,73
854,79	1089,53
855,23	1093,53
855,66	1078,93
856,09	1084,73
856,53	1094,13
856,96	1070,33
857,39	1076,53
857,83	1073,13
858,26	1082,33
858,69	1100,73
859,12	1070,53
859,56	1059,93
859,99	1063,33
860,42	1060,93
860,86	1043,73
861,29	1054,73
861,72	1037,33
862,16	1052,73
862,59	1028,13
863,02	1044,73
863,45	1034,93
863,89	1030,53
864,32	1052,53
864,75	995,93
865,18	1014,93
865,62	996,53
866,05	972,93
866,48	995,93
866,91	1041,13
867,35	986,93
867,78	995,93
868,21	962,73
868,64	953,53
869,08	967,53
869,51	949,93
869,94	987,93
870,37	925,13
870,81	937,73
871,24	917,33
871,67	912,13
872,10	934,33
872,53	916,93
872,97	920,33
873,40	935,73
873,83	892,93
874,26	914,93
874,69	909,53
875,13	914,53
875,56	897,13
875,99	895,73
876,42	889,13
876,85	885,53
877,28	857,13
877,72	879,53
878,15	867,53
878,58	874,93
879,01	839,13
879,44	842,33
879,88	858,33
880,31	850,33
880,74	861,33
881,17	836,13
881,60	811,13
882,03	822,33
882,46	815,73
882,90	823,33
883,33	816,33
883,76	832,33
884,19	795,53
884,62	783,73
885,05	816,33
885,48	828,73
885,91	821,73
886,35	802,53
886,78	806,33
887,21	786,73
887,64	771,33
888,07	757,73
888,50	782,93
888,93	796,13
889,36	775,93
889,79	801,33
890,22	766,53
890,66	791,53
891,09	768,93
891,52	747,33
891,95	775,33
892,38	765,33
892,81	772,53
893,24	769,33
893,67	741,13
894,10	728,13
894,53	739,73
894,96	762,13
895,39	724,93
895,82	743,13
896,25	716,13
896,68	714,33
897,12	701,53
897,55	719,53
897,98	720,73
898,41	697,93
898,84	714,73
899,27	696,73
899,70	719,93
900,13	693,73
900,56	702,93
900,99	707,93
901,42	695,13
901,85	690,93
902,28	657,33
902,71	698,13
903,14	675,33
903,57	666,33
904,00	659,93
904,43	668,93
904,86	652,53
905,29	656,13
905,72	652,53
906,15	640,13
906,58	659,53
907,01	640,53
907,44	666,53
907,87	667,53
908,30	649,53
908,73	639,73
909,15	644,33
909,58	618,33
910,01	640,13
910,44	629,53
910,87	627,73
911,30	598,73
911,73	635,53
912,16	606,13
912,59	614,13
913,02	638,53
913,45	612,53
913,88	627,33
914,31	617,13
914,74	588,33
915,17	628,73
915,60	573,93
916,02	596,13
916,45	586,53
916,88	588,33
917,31	606,33
917,74	592,33
918,17	581,93
918,60	576,53
919,03	560,93
919,46	592,73
919,88	580,33
920,31	573,33
920,74	572,73
921,17	585,13
921,60	605,53
922,03	553,53
922,46	539,53
922,89	553,93
923,31	538,13
923,74	569,33
924,17	536,73
924,60	541,93
925,03	603,13
925,46	533,33
925,89	524,73
926,31	524,33
926,74	530,13
927,17	512,13
927,60	519,93
928,03	511,13
928,46	520,33
928,88	517,93
929,31	523,73
929,74	484,13
930,17	473,33
930,60	495,33
931,02	470,93
931,45	492,53
931,88	467,73
932,31	471,13
932,74	464,33
933,16	427,53
933,59	459,53
934,02	439,93
934,45	422,53
934,88	440,93
935,30	404,73
935,73	383,53
936,16	391,13
936,59	367,53
937,01	363,53
937,44	340,33
937,87	335,93
938,30	332,13
938,72	311,13
939,15	322,73
939,58	314,73
940,01	315,73
940,43	296,53
940,86	286,93
941,29	294,53
941,72	274,33
942,14	290,53
942,57	276,53
943,00	273,13
943,43	272,13
943,85	275,33
944,28	264,13
944,71	282,33
945,13	273,13
945,56	293,13
945,99	289,73
946,41	307,93
946,84	312,93
947,27	313,73
947,70	309,93
948,12	312,73
948,55	293,73
948,98	307,33
949,40	296,73
949,83	313,73
950,26	328,53
950,68	317,73
951,11	331,13
951,54	336,33
951,96	370,73
952,39	345,93
952,82	358,93
953,24	350,53
953,67	352,53
954,10	331,13
954,52	349,93
954,95	365,53
955,37	383,53
955,80	370,93
956,23	369,33
956,65	381,13
957,08	364,53
957,51	356,93
957,93	372,33
958,36	357,53
958,78	376,13
959,21	381,73
959,64	382,73
960,06	374,73
960,49	382,13
960,91	382,33
961,34	353,13
961,77	384,13
962,19	377,53
962,62	399,73
963,04	379,13
963,47	381,13
963,90	383,33
964,32	394,53
964,75	394,13
965,17	393,73
965,60	384,93
966,02	363,53
966,45	391,93
966,87	373,73
967,30	378,13
967,73	382,33
968,15	404,53
968,58	385,13
969,00	354,13
969,43	371,53
969,85	387,53
970,28	371,93
970,70	370,93
971,13	360,73
971,55	352,33
971,98	375,93
972,40	371,73
972,83	366,53
973,25	361,33
973,68	352,73
974,10	356,73
974,53	354,33
974,95	345,73
975,38	347,53
975,80	354,13
976,23	349,93
976,65	353,33
977,08	347,33
977,50	331,13
977,93	344,73
978,35	340,73
978,78	327,73
979,20	325,73
979,63	344,73
980,05	336,13
980,48	336,13
980,90	330,73
981,32	319,73
981,75	345,73
982,17	351,53
982,60	329,93
983,02	330,93
983,45	313,13
983,87	337,53
984,30	345,13
984,72	335,13
985,14	319,13
985,57	316,93
985,99	343,33
986,42	326,53
986,84	319,93
987,26	311,33
987,69	322,33
988,11	337,93
988,54	334,33
988,96	331,33
989,38	342,13
989,81	326,53
990,23	338,93
990,66	319,73
991,08	308,13
991,50	323,73
991,93	322,13
992,35	310,93
992,77	314,53
993,20	312,73
993,62	316,13
994,05	306,93
994,47	323,73
994,89	319,93
995,32	319,13
995,74	311,93
996,16	322,93
996,59	315,73
997,01	304,73
997,43	287,53
997,86	316,53
998,28	293,93
998,70	294,53
999,13	291,13
999,55	281,73
999,97	295,13
1000,40	285,13
1000,82	256,53
1001,24	302,93
1001,66	309,53
1002,09	268,93
1002,51	282,33
1002,93	258,53
1003,36	284,73
1003,78	291,93
1004,20	249,13
1004,63	247,33
1005,05	235,33
1005,47	256,33
1005,89	249,93
1006,32	251,33
1006,74	224,33
1007,16	232,73
1007,58	232,93
1008,01	244,53
1008,43	201,93
1008,85	225,33
1009,27	209,33
1009,70	227,93
1010,12	223,33
1010,54	191,93
1010,96	219,13
1011,39	216,13
1011,81	214,93
1012,23	198,73
1012,65	191,13
1013,08	194,33
1013,50	197,33
1013,92	203,13
1014,34	191,93
1014,76	183,93
1015,19	196,13
1015,61	190,93
1016,03	173,13
1016,45	167,33
1016,87	167,53
1017,30	191,53
1017,72	168,93
1018,14	169,53
1018,56	187,33
1018,98	173,33
1019,40	170,93
1019,83	159,73
1020,25	172,73
1020,67	175,73
1021,09	149,93
1021,51	163,73
1021,93	158,33
1022,36	158,53
1022,78	183,73
1023,20	162,13
1023,62	158,93
1024,04	142,53
1024,46	138,33
1024,88	158,73
1025,31	139,13
1025,73	143,53
1026,15	149,53
1026,57	146,53
1026,99	148,33
1027,41	141,13
1027,83	126,53
1028,25	136,53
1028,68	127,73
1029,10	119,13
1029,52	141,33
1029,94	123,73
1030,36	114,33
1030,78	115,93
1031,20	120,73
1031,62	110,13
1032,04	111,93
1032,46	113,93
1032,88	114,93
1033,30	105,33
1033,73	120,53
1034,15	109,73
1034,57	103,73
1034,99	111,53
1035,41	92,73
1035,83	96,73
1036,25	122,93
1036,67	121,33
1037,09	114,73
1037,51	104,93
1037,93	110,33
1038,35	97,93
1038,77	101,73
1039,19	94,73
1039,61	100,33
1040,03	82,53
1040,45	86,13
1040,87	104,93
1041,29	93,73
1041,71	86,93
1042,13	100,73
1042,55	85,13
1042,97	87,53
1043,39	77,13
1043,81	67,53
1044,23	89,93
1044,65	76,53
1045,07	84,33
1045,49	73,93
1045,91	67,13
1046,33	80,93
1046,75	74,13
1047,17	82,93
1047,59	75,93
1048,01	69,13
1048,43	94,13
1048,85	73,73
1049,27	67,93
1049,69	87,53
1050,11	82,13
1050,53	66,73
1050,95	48,33
1051,37	59,13
1051,79	81,13
1052,21	71,33
1052,62	60,73
1053,04	47,93
1053,46	49,93
1053,88	60,13
1054,30	61,33
1054,72	55,93
1055,14	66,93
1055,56	62,13
1055,98	51,73
1056,40	54,73
1056,82	50,33
1057,23	51,13
1057,65	64,93
1058,07	61,13
1058,49	51,13
1058,91	63,33
1059,33	47,73
1059,75	49,53
1060,17	44,33
1060,58	51,93
1061,00	59,73
1061,42	50,73
1061,84	39,13
1062,26	38,53
1062,68	38,73
1063,10	50,13
1063,51	56,13
1063,93	27,53
1064,35	38,13
1064,77	42,93
1065,19	21,53
1065,61	37,13
1066,03	29,13
1066,44	24,73
1066,86	11,33
1067,28	26,13
1067,70	25,33
1068,12	27,33
1068,53	18,73
1068,95	29,13
1069,37	38,93
1069,79	38,13
1070,21	30,73
1070,62	15,13
1071,04	53,53
1071,46	40,13
1071,88	30,93
1072,30	23,93
1072,71	32,93
1073,13	26,73
1073,55	37,33
1073,97	19,13
1074,38	32,73
1074,80	11,13
1075,22	36,93
1075,64	18,53
1076,05	22,93
1076,47	30,33
1076,89	14,73
1077,31	25,73
1077,72	5,73
1078,14	24,13
1078,56	12,93
1078,98	15,13
1079,39	3,13
1079,81	9,53
1080,23	5,33
1080,65	15,93
1081,06	20,13
1081,48	4,33
1081,90	11,53
1082,31	-4,47
1082,73	3,73
1083,15	4,53
1083,57	8,33
1083,98	-2,47
1084,40	9,93
1084,82	-1,67
1085,23	6,73
1085,65	13,33
1086,07	5,13
1086,48	7,33
1086,90	10,33
1087,32	8,13
1087,73	-5,67
1088,15	-1,87
1088,57	9,33
1088,98	5,33
1089,40	-2,67
1089,82	4,13
1090,23	9,13
1090,65	5,53
1091,07	3,13
1091,48	6,33
1091,90	-11,47
1092,31	-1,27
1092,73	-2,27
1093,15	4,13
1093,56	-7,07
1093,98	13,33
1094,40	12,93
1094,81	-7,87
1095,23	-5,27
1095,64	-24,07
1096,06	-13,27
1096,48	10,13
1096,89	-6,87
1097,31	-1,47
1097,72	8,33
1098,14	-3,87
1098,55	-9,07
1098,97	-15,47
1099,39	-7,67
1099,80	5,33
>>>>>End Processed Spectral Data<<<<<
